  -63.20
  -61.20
  -59.20
  -57.20
  -55.20
  -53.20
  -51.21
  -49.21
  -47.21
  -45.20
  -43.21
  -41.20
  -39.21
  -37.21
  -35.21
  -33.21
  -31.21
  -29.21
  -27.21
  -25.21
  -23.21
  -21.21
  -19.21
  -17.21
  -15.21
  -13.21
  -11.21
   -9.21
   -7.21
   -5.21
   -3.21
   -1.20
    0.79
    2.80
    4.79
    6.80
    8.79
   10.80
   12.79
   14.79
   16.79
   18.79
   20.79
   22.79
   24.79
   26.79
   28.79
   30.79
   32.79
   34.79
   36.79
   38.79
   40.79
   42.79
   44.79
   46.79
   48.79
   50.79
   52.79
   54.79
   56.79
